Time [sec]	P [h Pa]	T [°C]	U [%]	Wsp [m/s]	Wdir [°]	Lon [°]   	Lat [°]  	Altitude [m]	Geo Pot [m']	MRI   	RI   	Dew [°C]	Vi Te [°C]	Rs [m/s]	D [kg/m3]	Azimuth [°]	Elevation [°]	Range [m]
0         	1011.0  	32.00 	58   	1.0      	060     	-64.831762	17.762446	0.0         	0.0         	367.7 	367.7	22.7    	35.2      	0.0     	1.154399 	180        	18           	0        
1         	1010.0  	31.86 	60   	1.8      	054     	-64.831878	17.762351	8.8         	8.8         	371.4 	370.0	23.0    	35.1      	8.8     	1.153784 	50         	29           	18       
2         	1009.0  	31.73 	61   	2.5      	052     	-64.831994	17.762256	17.6        	17.6        	375.0 	372.3	23.4    	35.0      	8.8     	1.153169 	50         	29           	37       
3         	1008.0  	31.59 	63   	3.3      	051     	-64.832110	17.762161	26.5        	26.4        	378.6 	374.5	23.7    	34.9      	8.8     	1.152555 	50         	29           	55       
4         	1007.1  	31.46 	65   	4.1      	050     	-64.832227	17.762066	35.3        	35.2        	382.2 	376.7	24.0    	34.9      	8.8     	1.151942 	50         	29           	74       
5         	1006.1  	31.32 	66   	4.9      	049     	-64.832343	17.761971	44.1        	44.0        	385.7 	378.8	24.3    	34.8      	8.8     	1.151329 	50         	29           	92       
6         	1005.1  	31.19 	68   	5.6      	049     	-64.832459	17.761876	52.9        	52.8        	389.2 	380.9	24.6    	34.7      	8.8     	1.150716 	50         	29           	111      
7         	1004.1  	31.05 	70   	6.4      	049     	-64.832575	17.761781	61.7        	61.6        	392.7 	383.0	24.9    	34.7      	8.8     	1.150102 	50         	29           	129      
8         	1003.1  	30.92 	71   	7.2      	049     	-64.832692	17.761686	70.5        	70.4        	396.1 	385.0	25.1    	34.6      	8.8     	1.149489 	50         	29           	147      
9         	1002.2  	30.78 	72   	8.0      	048     	-64.832808	17.761592	79.4        	79.2        	397.1 	384.6	25.1    	34.4      	8.8     	1.148877 	50         	29           	166      
10        	1001.2  	30.65 	72   	8.7      	048     	-64.832924	17.761497	88.2        	88.0        	397.6 	383.7	25.0    	34.3      	8.8     	1.148264 	50         	29           	184      
11        	1000.2  	30.51 	72   	9.1      	049     	-64.833040	17.761402	97.0        	96.8        	398.1 	382.8	24.9    	34.1      	8.8     	1.147653 	50         	29           	203      
12        	999.2   	30.38 	72   	9.0      	050     	-64.833157	17.761307	105.8       	105.6       	398.6 	382.0	24.7    	34.0      	8.8     	1.147042 	50         	29           	221      
13        	998.2   	30.24 	72   	9.0      	051     	-64.833273	17.761212	114.6       	114.4       	399.1 	381.1	24.6    	33.8      	8.8     	1.146428 	50         	29           	240      
14        	997.3   	30.11 	72   	9.0      	052     	-64.833389	17.761117	123.5       	123.2       	399.6 	380.2	24.5    	33.7      	8.8     	1.145815 	50         	29           	258      
15        	996.3   	29.97 	72   	8.9      	053     	-64.833505	17.761022	132.3       	132.0       	400.1 	379.3	24.4    	33.5      	8.8     	1.145202 	50         	29           	277      
16        	995.3   	29.84 	72   	8.9      	054     	-64.833597	17.760965	141.1       	140.8       	400.6 	378.5	24.3    	33.3      	8.8     	1.144590 	50         	29           	291      
17        	994.3   	29.70 	72   	8.9      	056     	-64.833667	17.760940	149.9       	149.6       	401.1 	377.6	24.2    	33.2      	8.8     	1.143978 	51         	30           	302      
18        	993.4   	29.57 	72   	8.8      	057     	-64.833738	17.760915	158.7       	158.4       	401.6 	376.7	24.1    	33.0      	8.8     	1.143367 	51         	31           	313      
19        	992.4   	29.43 	72   	8.8      	058     	-64.833808	17.760890	167.5       	167.2       	402.2 	375.9	23.9    	32.9      	8.8     	1.142782 	52         	31           	324      
20        	991.5   	29.30 	72   	8.8      	059     	-64.833878	17.760865	176.4       	176.0       	402.7 	375.0	23.8    	32.7      	8.8     	1.142197 	52         	32           	335      
21        	990.5   	29.16 	73   	8.8      	060     	-64.833949	17.760840	185.2       	184.8       	403.3 	374.2	23.7    	32.6      	8.8     	1.141612 	53         	32           	346      
22        	989.6   	29.05 	73   	8.8      	062     	-64.834019	17.760815	194.0       	193.6       	403.9 	373.5	23.6    	32.4      	8.8     	1.140938 	53         	33           	357      
23        	988.6   	28.97 	73   	8.8      	063     	-64.834090	17.760791	202.4       	201.9       	404.6 	372.9	23.6    	32.3      	8.4     	1.140171 	53         	33           	368      
24        	987.7   	28.88 	73   	8.8      	064     	-64.834160	17.760766	210.3       	209.8       	405.3 	372.3	23.5    	32.2      	7.9     	1.139405 	54         	34           	379      
25        	986.8   	28.79 	73   	8.8      	065     	-64.834230	17.760741	218.2       	217.8       	406.0 	371.7	23.4    	32.1      	7.9     	1.138719 	54         	34           	390      
26        	985.9   	28.71 	73   	8.8      	066     	-64.834301	17.760716	226.2       	225.7       	406.7 	371.2	23.4    	32.0      	7.9     	1.138034 	55         	34           	400      
27        	985.0   	28.62 	73   	8.8      	067     	-64.834371	17.760691	234.1       	233.6       	407.5 	370.7	23.3    	31.9      	7.9     	1.137350 	55         	35           	411      
28        	984.2   	28.53 	73   	8.8      	069     	-64.834441	17.760666	242.1       	241.6       	408.3 	370.3	23.3    	31.8      	7.9     	1.136666 	55         	35           	422      
29        	983.3   	28.45 	73   	8.8      	070     	-64.834512	17.760641	250.0       	249.5       	409.1 	369.8	23.2    	31.8      	7.9     	1.135982 	56         	35           	433      
30        	982.4   	28.36 	73   	8.8      	071     	-64.834582	17.760616	258.0       	257.4       	409.9 	369.4	23.2    	31.7      	7.9     	1.135299 	56         	36           	444      
31        	981.5   	28.28 	74   	8.8      	072     	-64.834652	17.760592	265.9       	265.3       	410.7 	369.0	23.1    	31.6      	7.9     	1.134600 	56         	36           	455      
32        	980.7   	28.20 	74   	8.6      	073     	-64.834723	17.760567	273.9       	273.3       	411.5 	368.5	23.1    	31.5      	7.9     	1.133888 	57         	36           	466      
33        	979.8   	28.12 	74   	8.5      	073     	-64.834793	17.760542	281.8       	281.2       	412.4 	368.1	23.0    	31.4      	7.9     	1.133177 	57         	36           	477      
34        	978.9   	28.04 	74   	8.3      	074     	-64.834864	17.760517	289.8       	289.1       	413.2 	367.7	23.0    	31.3      	7.9     	1.132467 	57         	36           	488      
35        	978.1   	27.96 	74   	8.1      	074     	-64.834934	17.760492	297.7       	297.1       	414.0 	367.3	22.9    	31.2      	7.9     	1.131757 	57         	37           	499      
36        	977.2   	27.88 	74   	7.9      	075     	-64.835004	17.760467	305.7       	305.0       	414.9 	366.9	22.9    	31.1      	7.9     	1.131047 	58         	37           	509      
37        	976.3   	27.81 	74   	7.8      	076     	-64.835075	17.760442	313.6       	312.9       	415.7 	366.5	22.8    	31.1      	7.9     	1.130337 	58         	37           	520      
38        	975.4   	27.73 	75   	7.6      	076     	-64.835145	17.760418	321.6       	320.9       	416.6 	366.1	22.8    	31.0      	7.9     	1.129626 	58         	37           	531      
39        	974.6   	27.65 	75   	7.4      	077     	-64.835215	17.760393	329.5       	328.8       	417.4 	365.7	22.7    	30.9      	7.9     	1.128917 	58         	37           	543      
40        	973.7   	27.57 	75   	7.2      	078     	-64.835286	17.760368	337.5       	336.7       	418.2 	365.2	22.7    	30.8      	7.9     	1.128208 	58         	38           	554      
41        	972.8   	27.49 	75   	7.1      	079     	-64.835356	17.760343	345.4       	344.6       	419.1 	364.8	22.7    	30.7      	7.9     	1.127499 	59         	38           	565      
42        	972.0   	27.41 	75   	6.9      	080     	-64.835426	17.760318	353.4       	352.6       	419.9 	364.4	22.6    	30.6      	7.9     	1.126791 	59         	38           	576      
43        	971.1   	27.33 	75   	6.7      	080     	-64.835497	17.760293	361.3       	360.5       	420.7 	364.0	22.6    	30.5      	7.9     	1.126088 	59         	38           	587      
44        	970.3   	27.25 	75   	6.5      	081     	-64.835567	17.760268	369.3       	368.4       	421.6 	363.6	22.5    	30.4      	7.9     	1.125385 	59         	38           	598      
45        	969.4   	27.17 	76   	6.4      	082     	-64.835638	17.760244	377.2       	376.4       	422.4 	363.2	22.5    	30.4      	7.9     	1.124683 	59         	38           	609      
46        	968.5   	27.10 	76   	6.2      	083     	-64.835694	17.760244	385.2       	384.3       	423.3 	362.9	22.4    	30.3      	7.9     	1.123972 	60         	39           	618      
47        	967.7   	27.03 	76   	6.1      	084     	-64.835743	17.760257	393.1       	392.2       	424.3 	362.6	22.4    	30.2      	7.9     	1.123217 	60         	39           	626      
48        	966.8   	26.97 	76   	5.9      	086     	-64.835791	17.760271	400.8       	399.9       	425.2 	362.3	22.4    	30.1      	7.7     	1.122463 	61         	39           	633      
49        	966.0   	26.90 	76   	5.7      	087     	-64.835840	17.760284	408.4       	407.5       	426.1 	362.0	22.4    	30.1      	7.7     	1.121738 	61         	40           	641      
50        	965.2   	26.84 	76   	5.6      	088     	-64.835889	17.760298	416.1       	415.2       	427.0 	361.7	22.3    	30.0      	7.7     	1.121013 	62         	40           	649      
51        	964.3   	26.77 	77   	5.4      	089     	-64.835938	17.760311	423.8       	422.8       	428.0 	361.4	22.3    	29.9      	7.7     	1.120288 	62         	40           	657      
52        	963.5   	26.71 	77   	5.3      	091     	-64.835987	17.760325	431.4       	430.5       	428.9 	361.1	22.3    	29.9      	7.7     	1.119564 	62         	40           	665      
53        	962.7   	26.64 	77   	5.3      	093     	-64.836036	17.760338	439.1       	438.1       	429.8 	360.8	22.3    	29.8      	7.7     	1.118841 	63         	41           	673      
54        	961.8   	26.58 	77   	5.2      	094     	-64.836084	17.760352	446.8       	445.7       	430.7 	360.6	22.2    	29.7      	7.7     	1.118118 	63         	41           	681      
55        	961.0   	26.51 	77   	5.2      	096     	-64.836133	17.760365	454.4       	453.4       	431.6 	360.3	22.2    	29.7      	7.7     	1.117394 	64         	41           	689      
56        	960.2   	26.45 	77   	5.2      	098     	-64.836182	17.760379	462.1       	461.0       	432.5 	360.0	22.2    	29.6      	7.7     	1.116671 	64         	42           	697      
57        	959.3   	26.39 	78   	5.2      	100     	-64.836231	17.760392	469.8       	468.7       	433.4 	359.7	22.2    	29.5      	7.7     	1.115948 	64         	42           	705      
58        	958.5   	26.32 	78   	5.3      	102     	-64.836280	17.760406	477.4       	476.3       	434.3 	359.4	22.1    	29.5      	7.7     	1.115226 	65         	42           	713      
59        	957.7   	26.26 	78   	5.3      	103     	-64.836328	17.760420	485.1       	484.0       	435.3 	359.1	22.1    	29.4      	7.7     	1.114505 	65         	42           	721      
60        	956.9   	26.19 	78   	5.3      	105     	-64.836377	17.760433	492.8       	491.6       	436.2 	358.8	22.1    	29.3      	7.7     	1.113783 	66         	43           	729      
61        	956.0   	26.13 	78   	5.3      	107     	-64.836426	17.760447	500.4       	499.3       	437.1 	358.5	22.1    	29.3      	7.7     	1.113062 	66         	43           	738      
62        	955.2   	26.06 	78   	5.3      	109     	-64.836475	17.760460	508.1       	506.9       	438.0 	358.2	22.0    	29.2      	7.7     	1.112334 	66         	43           	746      
63        	954.4   	26.01 	79   	5.4      	110     	-64.836524	17.760474	515.7       	514.6       	438.9 	358.0	22.0    	29.1      	7.7     	1.111573 	67         	43           	754      
64        	953.6   	25.96 	79   	5.4      	112     	-64.836572	17.760487	523.4       	522.2       	439.8 	357.6	22.0    	29.1      	7.7     	1.110814 	67         	43           	762      
65        	952.7   	25.90 	79   	5.5      	114     	-64.836621	17.760501	531.1       	529.9       	440.7 	357.3	21.9    	29.0      	7.7     	1.110055 	67         	44           	771      
66        	951.9   	25.85 	79   	5.5      	116     	-64.836670	17.760514	538.7       	537.5       	441.6 	357.0	21.9    	29.0      	7.7     	1.109296 	68         	44           	779      
67        	951.1   	25.79 	79   	5.6      	117     	-64.836719	17.760528	546.4       	545.2       	442.4 	356.6	21.9    	28.9      	7.7     	1.108537 	68         	44           	787      
68        	950.3   	25.74 	79   	5.6      	119     	-64.836768	17.760541	554.1       	552.8       	443.3 	356.3	21.9    	28.9      	7.7     	1.107778 	68         	44           	796      
69        	949.4   	25.69 	79   	5.7      	120     	-64.836817	17.760555	561.7       	560.5       	444.2 	356.0	21.8    	28.8      	7.7     	1.107020 	69         	44           	804      
70        	948.6   	25.63 	79   	5.8      	122     	-64.836865	17.760568	569.4       	568.1       	445.0 	355.6	21.8    	28.7      	7.7     	1.106263 	69         	44           	813      
71        	947.8   	25.58 	79   	5.8      	123     	-64.836914	17.760582	577.1       	575.8       	445.9 	355.3	21.8    	28.7      	7.7     	1.105506 	69         	45           	821      
72        	947.0   	25.52 	80   	5.9      	125     	-64.836963	17.760595	584.7       	583.4       	446.8 	355.0	21.7    	28.6      	7.7     	1.104749 	70         	45           	830      
73        	946.2   	25.47 	80   	5.9      	124     	-64.837012	17.760609	592.4       	591.1       	447.7 	354.7	21.7    	28.6      	7.7     	1.104000 	70         	45           	838      
74        	945.4   	25.42 	80   	5.9      	124     	-64.837061	17.760622	600.0       	598.7       	448.5 	354.3	21.7    	28.5      	7.6     	1.103251 	70         	45           	846      
75        	944.5   	25.36 	80   	5.9      	123     	-64.837109	17.760636	607.6       	606.2       	449.4 	354.0	21.6    	28.5      	7.6     	1.102502 	71         	45           	855      
76        	943.7   	25.31 	80   	6.0      	123     	-64.837160	17.760654	615.2       	613.8       	450.3 	353.7	21.6    	28.4      	7.6     	1.101755 	71         	45           	863      
77        	942.9   	25.25 	80   	6.0      	122     	-64.837212	17.760678	622.8       	621.4       	451.1 	353.3	21.6    	28.3      	7.6     	1.101007 	71         	46           	872      
78        	942.1   	25.18 	80   	6.0      	122     	-64.837264	17.760701	630.4       	628.9       	451.9 	352.9	21.5    	28.3      	7.6     	1.100340 	72         	46           	880      
79        	941.3   	25.10 	80   	6.0      	121     	-64.837316	17.760725	638.0       	636.5       	452.6 	352.5	21.5    	28.2      	7.6     	1.099680 	72         	46           	889      
80        	940.5   	25.02 	80   	6.0      	121     	-64.837368	17.760748	645.6       	644.1       	453.4 	352.0	21.4    	28.1      	7.6     	1.099020 	72         	46           	898      
81        	939.7   	24.95 	81   	6.1      	120     	-64.837420	17.760772	653.2       	651.7       	454.1 	351.6	21.4    	28.0      	7.6     	1.098360 	73         	46           	906      
82        	938.9   	24.87 	81   	6.1      	120     	-64.837472	17.760795	660.7       	659.2       	455.0 	351.2	21.3    	27.9      	7.6     	1.097701 	73         	46           	915      
83        	938.1   	24.79 	81   	6.1      	119     	-64.837524	17.760819	668.3       	666.8       	455.8 	350.9	21.3    	27.8      	7.6     	1.097042 	74         	46           	923      
84        	937.3   	24.71 	81   	6.1      	119     	-64.837576	17.760842	675.9       	674.4       	456.6 	350.5	21.2    	27.8      	7.6     	1.096384 	74         	46           	932      
85        	936.5   	24.64 	81   	6.2      	118     	-64.837628	17.760866	683.5       	681.9       	457.5 	350.2	21.2    	27.7      	7.6     	1.095725 	74         	47           	941      
86        	935.7   	24.56 	81   	6.2      	118     	-64.837680	17.760889	691.1       	689.5       	458.3 	349.8	21.2    	27.6      	7.6     	1.095066 	75         	47           	949      
87        	934.9   	24.48 	82   	6.2      	118     	-64.837732	17.760913	698.7       	697.1       	459.1 	349.4	21.1    	27.5      	7.6     	1.094407 	75         	47           	958      
88        	934.0   	24.41 	82   	6.2      	117     	-64.837784	17.760936	706.3       	704.7       	460.0 	349.1	21.1    	27.4      	7.6     	1.093750 	75         	47           	967      
89        	933.2   	24.33 	82   	6.2      	117     	-64.837836	17.760960	713.9       	712.2       	460.8 	348.7	21.0    	27.3      	7.6     	1.093092 	76         	47           	976      
90        	932.4   	24.25 	82   	6.3      	116     	-64.837888	17.760983	721.5       	719.8       	461.6 	348.4	21.0    	27.3      	7.6     	1.092435 	76         	47           	984      
91        	931.6   	24.18 	82   	6.3      	116     	-64.837940	17.761006	729.0       	727.4       	462.5 	348.0	21.0    	27.2      	7.6     	1.091777 	76         	47           	993      
92        	930.8   	24.10 	82   	6.3      	115     	-64.837992	17.761030	736.6       	734.9       	463.3 	347.6	20.9    	27.1      	7.6     	1.091120 	77         	47           	1002     
93        	930.0   	24.02 	83   	6.3      	115     	-64.838044	17.761053	744.2       	742.5       	464.1 	347.3	20.9    	27.0      	7.6     	1.090462 	77         	47           	1011     
94        	929.2   	23.94 	83   	6.3      	114     	-64.838095	17.761077	751.8       	750.1       	464.9 	346.9	20.8    	26.9      	7.6     	1.089804 	77         	48           	1020     
95        	928.4   	23.87 	83   	6.3      	114     	-64.838147	17.761100	759.4       	757.7       	465.8 	346.5	20.8    	26.8      	7.6     	1.089146 	78         	48           	1028     
96        	927.6   	23.79 	83   	6.2      	113     	-64.838199	17.761124	767.0       	765.2       	466.6 	346.2	20.8    	26.8      	7.6     	1.088488 	78         	48           	1037     
97        	926.8   	23.71 	83   	6.2      	112     	-64.838251	17.761147	774.6       	772.8       	467.4 	345.8	20.7    	26.7      	7.6     	1.087829 	78         	48           	1046     
98        	926.0   	23.64 	83   	6.1      	112     	-64.838303	17.761171	782.2       	780.4       	468.3 	345.5	20.7    	26.6      	7.6     	1.087171 	79         	48           	1055     
99        	925.2   	23.56 	84   	6.1      	111     	-64.838355	17.761194	789.8       	787.9       	469.1 	345.1	20.6    	26.5      	7.6     	1.086513 	79         	48           	1064     
100       	924.4   	23.49 	84   	6.0      	110     	-64.838407	17.761218	797.4       	795.5       	470.0 	344.8	20.6    	26.4      	7.6     	1.085856 	79         	48           	1073     
101       	923.6   	23.41 	84   	6.0      	110     	-64.838459	17.761241	804.9       	803.1       	470.8 	344.5	20.6    	26.3      	7.6     	1.085199 	79         	48           	1082     
102       	922.8   	23.33 	84   	5.9      	109     	-64.838511	17.761265	812.5       	810.7       	471.7 	344.1	20.5    	26.3      	7.6     	1.084543 	80         	48           	1091     
103       	922.0   	23.26 	84   	5.9      	108     	-64.838563	17.761288	820.1       	818.2       	472.6 	343.8	20.5    	26.2      	7.6     	1.083881 	80         	48           	1100     
104       	921.2   	23.18 	85   	5.9      	108     	-64.838615	17.761312	827.7       	825.8       	473.5 	343.5	20.4    	26.1      	7.6     	1.083219 	80         	48           	1109     
